# Example ARIES LBLRTM output
# WN (cm^{-1})  Rad(mW m^{-2} sr^{-1} cm)
     600.000      3.54324
     600.100      4.89269
     600.200      6.23787
     600.300      7.46474
     600.400      8.48130
     600.500      9.22729
     600.600      9.67616
     600.700      9.83108
     600.800      9.71798
     600.900      9.37895
     601.000      8.86793
     601.100      8.24898
     601.200      7.59561
     601.300      6.98854
     601.400      6.50994
     601.500      6.23321
     601.600      6.20981
     601.700      6.45617
     601.800      6.94494
     601.900      7.60420
     602.000      8.32653
     602.100      8.98705
     602.200      9.46706
     602.300      9.67777
     602.400      9.57867
     602.500      9.18586
     602.600      8.56858
     602.700      7.83479
     602.800      7.10957
     602.900      6.51141
     603.000      6.13151
     603.100      6.02003
     603.200      6.18111
     603.300      6.57622
     603.400      7.13378
     603.500      7.76230
     603.600      8.36441
     603.700      8.84977
     603.800      9.14608
     603.900      9.20768
     604.000      9.02156
     604.100      8.61034
     604.200      8.03121
     604.300      7.37005
     604.400      6.73025
     604.500      6.21702
     604.600      5.91919
     604.700      5.89209
     604.800      6.14513
     604.900      6.63769
     605.001      7.28485
     605.101      7.97246
     605.201      8.57872
     605.301      8.99738
     605.401      9.15764
     605.501      9.03632
     605.601      8.66001
     605.701      8.09735
     605.801      7.44409
     605.901      6.80470
     606.001      6.27476
     606.101      5.92736
     606.201      5.80525
     606.301      5.91849
     606.401      6.24645
     606.501      6.74252
     606.601      7.34002
     606.701      7.95899
     606.801      8.51405
     606.901      8.92364
     607.001      9.12091
     607.101      9.06507
     607.201      8.75117
     607.301      8.21554
     607.401      7.53431
     607.501      6.81378
     607.601      6.17322
     607.701      5.72315
     607.801      5.54363
     607.901      5.66758
     608.001      6.07344
     608.101      6.68906
     608.201      7.40611
     608.301      8.10155
     608.401      8.66112
     608.501      8.99959
     608.601      9.07364
     608.701      8.88542
     608.801      8.47758
     608.901      7.92200
     609.001      7.30586
     609.101      6.71822
     609.201      6.23903
     609.301      5.93137
     609.401      5.83618
     609.501      5.96870
     609.601      6.31607
     609.701      6.83639
     609.801      7.46063
     609.901      8.09873
     610.001      8.65087
     610.101      9.02326
     610.201      9.14591
     610.301      8.98863
     610.401      8.57066
     610.501      7.96059
     610.601      7.26523
     610.701      6.60919
     610.801      6.10946
     610.901      5.85113
     611.001      5.87029
     611.101      6.14828
     611.201      6.61853
     611.301      7.18369
     611.401      7.73822
     611.501      8.19024
     611.601      8.47744
     611.701      8.57369
     611.801      8.48647
     611.901      8.24746
     612.001      7.90074
     612.101      7.49256
     612.201      7.06558
     612.301      6.65781
     612.401      6.30466
     612.501      6.04095
     612.601      5.90013
     612.701      5.90930
     612.801      6.08103
     612.901      6.40473
     613.001      6.84159
     613.101      7.32615
     613.201      7.77620
     613.301      8.10919
     613.401      8.26144
     613.501      8.20461
     613.601      7.95431
     613.701      7.56779
     613.801      7.13092
     613.901      6.73761
     614.001      6.46757
     614.101      6.36842
     614.201      6.44700
     614.301      6.67179
     614.401      6.98479
     614.501      7.31881
     614.601      7.61436
     614.701      7.83137
     614.801      7.95289
     614.901      7.98108
     615.002      7.92825
     615.102      7.80734
     615.202      7.62584
     615.302      7.38537
     615.402      7.08661
     615.502      6.73684
     615.602      6.35619
     615.702      5.97888
     615.802      5.64788
     615.902      5.40400
     616.002      5.27276
     616.102      5.25400
     616.202      5.31846
     616.302      5.41361
     616.402      5.47783
     616.502      5.45894
     616.602      5.33115
     616.702      5.10481
     616.802      4.82502
     616.902      4.55904
     617.002      4.37576
     617.102      4.32370
     617.202      4.41464
     617.302      4.61831
     617.402      4.87071
     617.502      5.09365
     617.602      5.22009
     617.702      5.21717
     617.802      5.09955
     617.902      4.92839
     618.002      4.79552
     618.102      4.79691
     618.202      5.00300
     618.302      5.43464
     618.402      6.05194
     618.502      6.75973
     618.602      7.42891
     618.702      7.92803
     618.802      8.15698
     618.902      8.07367
     619.002      7.70679
     619.102      7.15107
     619.202      6.54642
     619.302      6.04604
     619.402      5.78144
     619.502      5.83273
     619.602      6.21085
     619.702      6.85544
     619.802      7.64822
     619.902      8.43817
     620.002      9.07263
     620.102      9.42754
     620.202      9.43077
     620.302      9.07447
     620.402      8.41485
     620.502      7.56033
     620.602      6.65104
     620.702      5.83390
     620.802      5.23783
     620.902      4.95298
     621.002      5.01727
     621.102      5.41169
     621.202      6.06476
     621.302      6.86496
     621.402      7.67909
     621.502      8.37353
     621.602      8.83534
     621.702      8.98977
     621.802      8.81183
     621.902      8.33000
     622.002      7.62148
     622.102      6.79972
     622.202      5.99607
     622.302      5.33838
     622.402      4.92996
     622.502      4.83232
     622.602      5.05466
     622.702      5.55195
     622.802      6.23229
     622.902      6.97237
     623.002      7.63878
     623.102      8.11134
     623.202      8.30452
     623.302      8.18281
     623.402      7.76709
     623.502      7.13062
     623.602      6.38516
     623.702      5.65975
     623.802      5.07640
     623.902      4.72728
     624.002      4.65818
     624.102      4.86141
     624.202      5.27946
     624.302      5.81834
     624.402      6.36748
     624.502      6.82191
     624.602      7.10180
     624.702      7.16574
     624.802      7.01522
     624.902      6.69043
     625.003      6.25897
     625.103      5.80055
     625.203      5.39137
     625.303      5.09128
     625.403      4.93565
     625.503      4.93290
     625.603      5.06685
     625.703      5.30250
     625.803      5.59364
     625.903      5.89053
     626.003      6.14679
     626.103      6.32495
     626.203      6.40045
     626.303      6.36415
     626.403      6.22323
     626.503      6.00022
     626.603      5.72989
     626.703      5.45408
     626.803      5.21497
     626.903      5.04763
     627.003      4.97359
     627.103      4.99664
     627.203      5.10219
     627.303      5.26057
     627.403      5.43350
     627.503      5.58248
     627.603      5.67684
     627.703      5.69974
     627.803      5.65049
     627.903      5.54307
     628.003      5.40131
     628.103      5.25237
     628.203      5.12034
     628.303      5.02162
     628.403      4.96293
     628.503      4.94210
     628.603      4.95086
     628.703      4.97834
     628.803      5.01416
     628.903      5.05028
     629.003      5.08139
     629.103      5.10425
     629.203      5.11671
     629.303      5.11712
     629.403      5.10438
     629.503      5.07868
     629.603      5.04231
     629.703      4.99995
     629.803      4.95802
     629.903      4.92308
     630.003      4.89976
     630.103      4.88893
     630.203      4.88716
     630.303      4.88761
     630.403      4.88248
     630.503      4.86615
     630.603      4.83793
     630.703      4.80325
     630.803      4.77268
     630.903      4.75880
     631.003      4.77186
     631.103      4.81553
     631.203      4.88437
     631.303      4.96405
     631.403      5.03445
     631.503      5.07498
     631.603      5.07053
     631.703      5.01624
     631.803      4.91949
     631.903      4.79845
     632.003      4.67754
     632.103      4.58104
     632.203      4.52675
     632.303      4.52167
     632.403      4.56070
     632.503      4.62877
     632.603      4.70554
     632.703      4.77110
     632.803      4.81100
     632.903      4.81912
     633.003      4.79788
     633.103      4.75589
     633.203      4.70432
     633.303      4.65316
     633.403      4.60872
     633.503      4.57301
     633.603      4.54480
     633.703      4.52182
     633.803      4.50287
     633.903      4.48902
     634.003      4.48335
     634.103      4.48937
     634.203      4.50887
     634.303      4.54007
     634.403      4.57706
     634.503      4.61076
     634.603      4.63136
     634.703      4.63134
     634.803      4.60819
     634.903      4.56569
     635.004      4.51335
     635.104      4.46405
     635.204      4.43052
     635.304      4.42173
     635.404      4.44037
     635.504      4.48196
     635.604      4.53608
     635.704      4.58913
     635.804      4.62792
     635.904      4.64298
     636.004      4.63074
     636.104      4.59406
     636.204      4.54111
     636.304      4.48295
     636.404      4.43073
     636.504      4.39306
     636.604      4.37429
     636.704      4.37408
     636.804      4.38801
     636.904      4.40916
     637.004      4.43003
     637.104      4.44439
     637.204      4.44858
     637.304      4.44219
     637.404      4.42778
     637.504      4.41009
     637.604      4.39467
     637.704      4.38636
     637.804      4.38803
     637.904      4.39970
     638.004      4.41852
     638.104      4.43933
     638.204      4.45601
     638.304      4.46310
     638.404      4.45727
     638.504      4.43838
     638.604      4.40953
     638.704      4.37628
     638.804      4.34512
     638.904      4.32166
     639.004      4.30909
     639.104      4.30750
     639.204      4.31418
     639.304      4.32486
     639.404      4.33553
     639.504      4.34403
     639.604      4.35091
     639.704      4.35918
     639.804      4.37296
     639.904      4.39547
     640.004      4.42715
     640.104      4.46459
     640.204      4.50093
     640.304      4.52755
     640.404      4.53673
     640.504      4.52443
     640.604      4.49201
     640.704      4.44647
     640.804      4.39869
     640.904      4.36041
     641.004      4.34053
     641.104      4.34230
     641.204      4.36204
     641.304      4.39012
     641.404      4.41385
     641.504      4.42151
     641.604      4.40605
     641.704      4.36756
     641.804      4.31337
     641.904      4.25599
     642.004      4.20937
     642.104      4.18481
     642.204      4.18767
     642.304      4.21605
     642.404      4.26170
     642.504      4.31277
     642.604      4.35752
     642.704      4.38767
     642.804      4.40036
     642.904      4.39821
     643.004      4.38770
     643.104      4.37644
     643.204      4.37047
     643.304      4.37261
     643.404      4.38213
     643.504      4.39598
     643.604      4.41066
     643.704      4.42405
     643.804      4.43636
     643.904      4.44971
     644.004      4.46655
     644.104      4.48764
     644.204      4.51043
     644.304      4.52865
     644.404      4.53357
     644.504      4.51660
     644.604      4.47255
     644.704      4.40227
     644.804      4.31384
     644.904      4.22164
     645.005      4.14325
     645.105      4.09520
     645.205      4.08856
     645.305      4.12573
     645.405      4.19938
     645.505      4.29393
     645.605      4.38916
     645.705      4.46486
     645.805      4.50547
     645.905      4.50339
     646.005      4.46024
     646.105      4.38593
     646.205      4.29599
     646.305      4.20792
     646.405      4.13767
     646.505      4.09681
     646.605      4.09112
     646.705      4.12034
     646.805      4.17911
     646.905      4.25834
     647.005      4.34686
     647.105      4.43292
     647.205      4.50541
     647.305      4.55501
     647.405      4.57506
     647.505      4.56250
     647.605      4.51859
     647.705      4.44921
     647.805      4.36475
     647.905      4.27917
     648.005      4.20831
     648.105      4.16766
     648.205      4.16978
     648.305      4.22186
     648.405      4.32389
     648.505      4.46774
     648.605      4.63758
     648.705      4.81160
     648.805      4.96498
     648.905      5.07374
     649.005      5.11903
     649.105      5.09094
     649.205      4.99125
     649.305      4.83428
     649.405      4.64537
     649.505      4.45695
     649.605      4.30279
     649.705      4.21124
     649.805      4.19907
     649.905      4.26730
     650.005      4.40012
     650.105      4.56768
     650.205      4.73204
     650.305      4.85537
     650.405      4.90836
     650.505      4.87683
     650.605      4.76486
     650.705      4.59372
     650.805      4.39670
     650.905      4.21124
     651.005      4.07050
     651.105      3.99623
     651.205      3.99497
     651.305      4.05803
     651.405      4.16512
     651.505      4.29027
     651.605      4.40824
     651.705      4.49968
     651.805      4.55400
     651.905      4.56936
     652.005      4.55064
     652.105      4.50624
     652.205      4.44523
     652.305      4.37552
     652.405      4.30357
     652.505      4.23516
     652.605      4.17653
     652.705      4.13491
     652.805      4.11794
     652.905      4.13188
     653.005      4.17931
     653.105      4.25699
     653.205      4.35513
     653.305      4.45840
     653.405      4.54876
     653.505      4.60938
     653.605      4.62869
     653.705      4.60327
     653.805      4.53877
     653.905      4.44871
     654.005      4.35142
     654.105      4.26607
     654.205      4.20881
     654.305      4.18988
     654.405      4.21232
     654.505      4.27202
     654.605      4.35900
     654.705      4.45920
     654.805      4.55650
     654.905      4.63464
     655.006      4.67912
     655.106      4.67922
     655.206      4.62998
     655.306      4.53403
     655.406      4.40254
     655.506      4.25482
     655.606      4.11589
     655.706      4.01222
     655.806      3.96619
     655.906      3.99060
     656.006      4.08464
     656.106      4.23291
     656.206      4.40782
     656.306      4.57542
     656.406      4.70296
     656.506      4.76650
     656.606      4.75633
     656.706      4.67870
     656.806      4.55344
     656.906      4.40831
     657.006      4.27171
     657.106      4.16606
     657.206      4.10356
     657.306      4.08545
     657.406      4.10446
     657.506      4.14912
     657.606      4.20823
     657.706      4.27377
     657.806      4.34131
     657.906      4.40822
     658.006      4.47085
     658.106      4.52219
     658.206      4.55174
     658.306      4.54783
     658.406      4.50204
     658.506      4.41411
     658.606      4.29513
     658.706      4.16739
     658.806      4.06023
     658.906      4.00267
     659.006      4.01480
     659.106      4.10082
     659.206      4.24608
     659.306      4.41953
     659.406      4.58123
     659.506      4.69280
     659.606      4.72782
     659.706      4.67892
     659.806      4.55944
     659.906      4.39919
     660.006      4.23567
     660.106      4.10362
     660.206      4.02617
     660.306      4.01017
     660.406      4.04688
     660.506      4.11727
     660.606      4.19962
     660.706      4.27665
     660.806      4.33963
     660.906      4.38828
     661.006      4.42696
     661.106      4.45923
     661.206      4.48331
     661.306      4.49071
     661.406      4.46896
     661.506      4.40769
     661.606      4.30559
     661.706      4.17550
     661.806      4.04495
     661.906      3.95110
     662.006      3.93111
     662.106      4.01058
     662.206      4.19388
     662.306      4.45964
     662.406      4.76357
     662.506      5.04805
     662.606      5.25628
     662.706      5.34670
     662.806      5.30361
     662.906      5.14078
     663.006      4.89712
     663.106      4.62572
     663.206      4.37975
     663.306      4.19936
     663.406      4.10324
     663.506      4.08703
     663.606      4.12818
     663.706      4.19543
     663.806      4.25920
     663.906      4.29987
     664.006      4.31138
     664.106      4.29986
     664.206      4.27845
     664.306      4.26051
     664.406      4.25420
     664.506      4.25994
     664.606      4.27147
     664.706      4.27967
     664.806      4.27714
     664.906      4.26173
     665.007      4.23753
     665.107      4.21304
     665.207      4.19749
     665.307      4.19682
     665.407      4.21114
     665.507      4.23460
     665.607      4.25772
     665.707      4.27117
     665.807      4.26945
     665.907      4.25285
     666.007      4.22712
     666.107      4.20084
     666.207      4.18188
     666.307      4.17439
     666.407      4.17782
     666.507      4.18842
     666.607      4.20271
     666.707      4.22134
     666.807      4.25157
     666.907      4.30684
     667.007      4.40319
     667.107      4.55330
     667.207      4.76021
     667.307      5.01316
     667.407      5.28737
     667.507      5.54839
     667.607      5.76013
     667.707      5.89414
     667.807      5.93730
     667.907      5.89521
     668.007      5.79019
     668.107      5.65427
     668.207      5.51946
     668.307      5.40846
     668.407      5.32889
     668.507      5.27290
     668.607      5.22220
     668.707      5.15678
     668.807      5.06402
     668.907      4.94504
     669.007      4.81591
     669.107      4.70309
     669.207      4.63453
     669.307      4.62952
     669.407      4.69063
     669.507      4.80076
     669.607      4.92643
     669.707      5.02645
     669.807      5.06351
     669.907      5.01491
     670.007      4.87925
     670.107      4.67710
     670.207      4.44542
     670.307      4.22764
     670.407      4.06245
     670.507      3.97457
     670.607      3.97000
     670.707      4.03674
     670.807      4.15007
     670.907      4.28041
     671.007      4.40112
     671.107      4.49381
     671.207      4.55025
     671.307      4.57085
     671.407      4.56100
     671.507      4.52728
     671.607      4.47487
     671.707      4.40714
     671.807      4.32712
     671.907      4.23985
     672.007      4.15400
     672.107      4.08186
     672.207      4.03707
     672.307      4.03084
     672.407      4.06777
     672.507      4.14308
     672.607      4.24218
     672.707      4.34334
     672.807      4.42261
     672.907      4.45987
     673.007      4.44399
     673.107      4.37581
     673.207      4.26795
     673.307      4.14162
     673.407      4.02145
     673.507      3.92979
     673.607      3.88211
     673.707      3.88442
     673.807      3.93322
     673.907      4.01747
     674.007      4.12172
     674.107      4.22938
     674.207      4.32538
     674.307      4.39773
     674.407      4.43818
     674.507      4.44233
     674.607      4.40961
     674.707      4.34341
     674.807      4.25121
     674.907      4.14455
     675.008      4.03825
     675.108      3.94878
     675.208      3.89181
     675.308      3.87926
     675.408      3.91670
     675.508      4.00167
     675.608      4.12354
     675.708      4.26500
     675.808      4.40488
     675.908      4.52182
     676.008      4.59780
     676.108      4.62099
     676.208      4.58754
     676.308      4.50194
     676.408      4.37635
     676.508      4.22885
